# Energy    Summed_PDOS
  -27.116000    -0.000029
  -27.106000    -0.000031
  -27.096000    -0.000034
  -27.086000    -0.000037
  -27.076000    -0.000039
  -27.066000    -0.000042
  -27.056000    -0.000046
  -27.046000    -0.000049
  -27.036000    -0.000053
  -27.026000    -0.000057
  -27.016000    -0.000061
  -27.006000    -0.000065
  -26.996000    -0.000070
  -26.986000    -0.000075
  -26.976000    -0.000081
  -26.966000    -0.000086
  -26.956000    -0.000092
  -26.946000    -0.000099
  -26.936000    -0.000106
  -26.926000    -0.000113
  -26.916000    -0.000121
  -26.906000    -0.000129
  -26.896000    -0.000138
  -26.886000    -0.000146
  -26.876000    -0.000156
  -26.866000    -0.000166
  -26.856000    -0.000178
  -26.846000    -0.000189
  -26.836000    -0.000201
  -26.826000    -0.000214
  -26.816000    -0.000228
  -26.806000    -0.000241
  -26.796000    -0.000256
  -26.786000    -0.000271
  -26.776000    -0.000288
  -26.766000    -0.000305
  -26.756000    -0.000323
  -26.746000    -0.000341
  -26.736000    -0.000361
  -26.726000    -0.000382
  -26.716000    -0.000403
  -26.706000    -0.000425
  -26.696000    -0.000449
  -26.686000    -0.000474
  -26.676000    -0.000499
  -26.666000    -0.000525
  -26.656000    -0.000553
  -26.646000    -0.000582
  -26.636000    -0.000611
  -26.626000    -0.000643
  -26.616000    -0.000674
  -26.606000    -0.000708
  -26.596000    -0.000742
  -26.586000    -0.000777
  -26.576000    -0.000814
  -26.566000    -0.000851
  -26.556000    -0.000891
  -26.546000    -0.000930
  -26.536000    -0.000971
  -26.526000    -0.001013
  -26.516000    -0.001057
  -26.506000    -0.001100
  -26.496000    -0.001146
  -26.486000    -0.001193
  -26.476000    -0.001239
  -26.466000    -0.001288
  -26.456000    -0.001338
  -26.446000    -0.001388
  -26.436000    -0.001439
  -26.426000    -0.001488
  -26.416000    -0.001539
  -26.406000    -0.001589
  -26.396000    -0.001640
  -26.386000    -0.001700
  -26.376000    -0.001750
  -26.366000    -0.001801
  -26.356000    -0.001852
  -26.346000    -0.001902
  -26.336000    -0.001963
  -26.326000    -0.002013
  -26.316000    -0.002063
  -26.306000    -0.002113
  -26.296000    -0.002162
  -26.286000    -0.002202
  -26.276000    -0.002252
  -26.266000    -0.002290
  -26.256000    -0.002339
  -26.246000    -0.002376
  -26.236000    -0.002414
  -26.226000    -0.002440
  -26.216000    -0.002476
  -26.206000    -0.002502
  -26.196000    -0.002527
  -26.186000    -0.002550
  -26.176000    -0.002563
  -26.166000    -0.002576
  -26.156000    -0.002577
  -26.146000    -0.002577
  -26.136000    -0.002576
  -26.126000    -0.002563
  -26.116000    -0.002540
  -26.106000    -0.002515
  -26.096000    -0.002488
  -26.086000    -0.002440
  -26.076000    -0.002400
  -26.066000    -0.002340
  -26.056000    -0.002276
  -26.046000    -0.002201
  -26.036000    -0.002114
  -26.026000    -0.002015
  -26.016000    -0.001914
  -26.006000    -0.001801
  -25.996000    -0.001675
  -25.986000    -0.001527
  -25.976000    -0.001377
  -25.966000    -0.001215
  -25.956000    -0.001037
  -25.946000    -0.000846
  -25.936000    -0.000642
  -25.926000    -0.000423
  -25.916000    -0.000189
  -25.906000     0.000059
  -25.896000     0.000323
  -25.886000     0.000601
  -25.876000     0.000897
  -25.866000     0.001207
  -25.856000     0.001538
  -25.846000     0.001877
  -25.836000     0.002239
  -25.826000     0.002615
  -25.816000     0.003014
  -25.806000     0.003427
  -25.796000     0.003853
  -25.786000     0.004303
  -25.776000     0.004766
  -25.766000     0.005252
  -25.756000     0.005750
  -25.746000     0.006267
  -25.736000     0.006803
  -25.726000     0.007350
  -25.716000     0.007917
  -25.706000     0.008504
  -25.696000     0.009112
  -25.686000     0.009729
  -25.676000     0.010367
  -25.666000     0.011015
  -25.656000     0.011683
  -25.646000     0.012362
  -25.636000     0.013020
  -25.626000     0.013759
  -25.616000     0.014507
  -25.606000     0.015257
  -25.596000     0.016006
  -25.586000     0.016755
  -25.576000     0.017514
  -25.566000     0.018264
  -25.556000     0.019023
  -25.546000     0.019883
  -25.536000     0.020644
  -25.526000     0.021503
  -25.516000     0.022273
  -25.506000     0.023133
  -25.496000     0.023904
  -25.486000     0.024763
  -25.476000     0.025634
  -25.466000     0.026394
  -25.456000     0.027263
  -25.446000     0.028034
  -25.436000     0.028894
  -25.426000     0.029654
  -25.416000     0.030524
  -25.406000     0.031284
  -25.396000     0.032144
  -25.386000     0.032903
  -25.376000     0.033653
  -25.366000     0.034413
  -25.356000     0.035261
  -25.346000     0.035911
  -25.336000     0.036659
  -25.326000     0.037398
  -25.316000     0.038137
  -25.306000     0.038775
  -25.296000     0.039403
  -25.286000     0.040031
  -25.276000     0.040659
  -25.266000     0.041275
  -25.256000     0.041793
  -25.246000     0.042399
  -25.236000     0.042906
  -25.226000     0.043401
  -25.216000     0.043898
  -25.206000     0.044283
  -25.196000     0.044667
  -25.186000     0.045043
  -25.176000     0.045407
  -25.166000     0.045770
  -25.156000     0.046033
  -25.146000     0.046277
  -25.136000     0.046520
  -25.126000     0.046662
  -25.116000     0.046794
  -25.106000     0.046915
  -25.096000     0.047036
  -25.086000     0.047047
  -25.076000     0.047147
  -25.066000     0.047147
  -25.056000     0.047036
  -25.046000     0.046925
  -25.036000     0.046894
  -25.026000     0.046672
  -25.016000     0.046530
  -25.006000     0.046288
  -24.996000     0.046034
  -24.986000     0.045781
  -24.976000     0.045517
  -24.966000     0.045153
  -24.956000     0.044778
  -24.946000     0.044394
  -24.936000     0.043909
  -24.926000     0.043412
  -24.916000     0.043017
  -24.906000     0.042420
  -24.896000     0.041914
  -24.886000     0.041396
  -24.876000     0.040780
  -24.866000     0.040152
  -24.856000     0.039525
  -24.846000     0.038896
  -24.836000     0.038158
  -24.826000     0.037520
  -24.816000     0.036782
  -24.806000     0.036032
  -24.796000     0.035393
  -24.786000     0.034634
  -24.776000     0.033785
  -24.766000     0.033025
  -24.756000     0.032266
  -24.746000     0.031506
  -24.736000     0.030645
  -24.726000     0.029886
  -24.716000     0.029026
  -24.706000     0.028255
  -24.696000     0.027395
  -24.686000     0.026526
  -24.676000     0.025755
  -24.666000     0.024895
  -24.656000     0.024025
  -24.646000     0.023265
  -24.636000     0.022395
  -24.626000     0.021635
  -24.616000     0.020775
  -24.606000     0.020015
  -24.596000     0.019155
  -24.586000     0.018396
  -24.576000     0.017636
  -24.566000     0.016876
  -24.556000     0.016127
  -24.546000     0.015378
  -24.536000     0.014630
  -24.526000     0.013890
  -24.516000     0.013141
  -24.506000     0.012483
  -24.496000     0.011794
  -24.486000     0.011137
  -24.476000     0.010468
  -24.466000     0.009830
  -24.456000     0.009223
  -24.446000     0.008605
  -24.436000     0.008018
  -24.426000     0.007441
  -24.416000     0.006895
  -24.406000     0.006358
  -24.396000     0.005842
  -24.386000     0.005325
  -24.376000     0.004852
  -24.366000     0.004379
  -24.356000     0.003928
  -24.346000     0.003502
  -24.336000     0.003078
  -24.326000     0.002688
  -24.316000     0.002302
  -24.306000     0.001939
  -24.296000     0.001589
  -24.286000     0.001263
  -24.276000     0.000949
  -24.266000     0.000651
  -24.256000     0.000369
  -24.246000     0.000103
  -24.236000    -0.000148
  -24.226000    -0.000384
  -24.216000    -0.000605
  -24.206000    -0.000812
  -24.196000    -0.001005
  -24.186000    -0.001186
  -24.176000    -0.001352
  -24.166000    -0.001502
  -24.156000    -0.001650
  -24.146000    -0.001777
  -24.136000    -0.001900
  -24.126000    -0.002002
  -24.116000    -0.002101
  -24.106000    -0.002189
  -24.096000    -0.002264
  -24.086000    -0.002327
  -24.076000    -0.002389
  -24.066000    -0.002439
  -24.056000    -0.002477
  -24.046000    -0.002514
  -24.036000    -0.002539
  -24.026000    -0.002553
  -24.016000    -0.002566
  -24.006000    -0.002577
  -23.996000    -0.002577
  -23.986000    -0.002577
  -23.976000    -0.002564
  -23.966000    -0.002551
  -23.956000    -0.002527
  -23.946000    -0.002503
  -23.936000    -0.002477
  -23.926000    -0.002451
  -23.916000    -0.002415
  -23.906000    -0.002377
  -23.896000    -0.002340
  -23.886000    -0.002301
  -23.876000    -0.002263
  -23.866000    -0.002214
  -23.856000    -0.002165
  -23.846000    -0.002115
  -23.836000    -0.002065
  -23.826000    -0.002015
  -23.816000    -0.001964
  -23.806000    -0.001914
  -23.796000    -0.001864
  -23.786000    -0.001813
  -23.776000    -0.001763
  -23.766000    -0.001702
  -23.756000    -0.001651
  -23.746000    -0.001601
  -23.736000    -0.001551
  -23.726000    -0.001500
  -23.716000    -0.001450
  -23.706000    -0.001400
  -23.696000    -0.001349
  -23.686000    -0.001300
  -23.676000    -0.001248
  -23.666000    -0.001201
  -23.656000    -0.001154
  -23.646000    -0.001109
  -23.636000    -0.001064
  -23.626000    -0.001020
  -23.616000    -0.000978
  -23.606000    -0.000937
  -23.596000    -0.000897
  -23.586000    -0.000859
  -23.576000    -0.000820
  -23.566000    -0.000784
  -23.556000    -0.000748
  -23.546000    -0.000713
  -23.536000    -0.000680
  -23.526000    -0.000648
  -23.516000    -0.000617
  -23.506000    -0.000587
  -23.496000    -0.000558
  -23.486000    -0.000530
  -23.476000    -0.000504
  -23.466000    -0.000478
  -23.456000    -0.000453
  -23.446000    -0.000430
  -23.436000    -0.000407
  -23.426000    -0.000385
  -23.416000    -0.000365
  -23.406000    -0.000345
  -23.396000    -0.000326
  -23.386000    -0.000308
  -23.376000    -0.000290
  -23.366000    -0.000274
  -23.356000    -0.000259
  -23.346000    -0.000244
  -23.336000    -0.000229
  -23.326000    -0.000216
  -23.316000    -0.000203
  -23.306000    -0.000191
  -23.296000    -0.000180
  -23.286000    -0.000169
  -23.276000    -0.000159
  -23.266000    -0.000149
  -23.256000    -0.000139
  -23.246000    -0.000130
  -23.236000    -0.000122
  -23.226000    -0.000114
  -23.216000    -0.000107
  -23.206000    -0.000100
  -23.196000    -0.000093
  -23.186000    -0.000087
  -23.176000    -0.000082
  -23.166000    -0.000076
  -23.156000    -0.000071
  -23.146000    -0.000066
  -23.136000    -0.000062
  -23.126000    -0.000057
  -23.116000    -0.000053
  -23.106000    -0.000050
  -23.096000    -0.000046
  -23.086000    -0.000043
  -23.076000    -0.000040
  -23.066000    -0.000037
  -23.056000    -0.000034
  -23.046000    -0.000032
  -23.036000    -0.000029
  -23.026000    -0.000027
  -23.016000    -0.000025
  -23.006000    -0.000023
  -22.996000    -0.000022
  -22.986000    -0.000020
  -22.976000    -0.000019
  -22.966000    -0.000017
  -22.956000    -0.000016
  -22.946000    -0.000015
  -22.936000    -0.000013
  -22.926000    -0.000012
  -22.916000    -0.000011
  -22.906000    -0.000010
  -22.896000    -0.000010
  -22.886000    -0.000009
  -22.876000    -0.000008
  -22.866000    -0.000007
  -22.856000    -0.000007
  -22.846000    -0.000006
  -22.836000    -0.000006
  -22.826000    -0.000005
  -22.816000    -0.000005
  -22.806000    -0.000004
  -22.796000    -0.000004
  -22.786000    -0.000004
  -22.776000    -0.000003
  -22.766000    -0.000003
  -22.756000    -0.000003
  -22.746000    -0.000003
  -22.736000    -0.000002
  -22.726000    -0.000002
  -22.716000    -0.000002
  -22.706000    -0.000002
  -22.696000    -0.000002
  -22.686000    -0.000002
  -22.676000    -0.000002
  -22.666000    -0.000001
  -22.656000    -0.000001
  -22.646000    -0.000001
  -22.636000    -0.000001
  -22.626000    -0.000001
  -22.616000    -0.000001
  -22.606000    -0.000001
  -22.596000    -0.000001
  -22.586000    -0.000001
  -22.576000    -0.000001
  -22.566000    -0.000001
  -22.556000    -0.000001
  -22.546000    -0.000001
  -22.536000    -0.000001
  -22.526000    -0.000001
  -22.516000    -0.000001
  -22.506000    -0.000001
  -22.496000    -0.000001
  -22.486000    -0.000001
  -22.476000    -0.000001
  -22.466000    -0.000001
  -22.456000    -0.000001
  -22.446000    -0.000001
  -22.436000    -0.000001
  -22.426000    -0.000001
  -22.416000    -0.000001
  -22.406000    -0.000002
  -22.396000    -0.000002
  -22.386000    -0.000002
  -22.376000    -0.000002
  -22.366000    -0.000002
  -22.356000    -0.000002
  -22.346000    -0.000002
  -22.336000    -0.000003
  -22.326000    -0.000003
  -22.316000    -0.000003
  -22.306000    -0.000003
  -22.296000    -0.000003
  -22.286000    -0.000004
  -22.276000    -0.000004
  -22.266000    -0.000004
  -22.256000    -0.000004
  -22.246000    -0.000005
  -22.236000    -0.000005
  -22.226000    -0.000006
  -22.216000    -0.000006
  -22.206000    -0.000006
  -22.196000    -0.000007
  -22.186000    -0.000007
  -22.176000    -0.000008
  -22.166000    -0.000008
  -22.156000    -0.000009
  -22.146000    -0.000010
  -22.136000    -0.000010
  -22.126000    -0.000011
  -22.116000    -0.000012
  -22.106000    -0.000013
  -22.096000    -0.000013
  -22.086000    -0.000014
  -22.076000    -0.000015
  -22.066000    -0.000016
  -22.056000    -0.000017
  -22.046000    -0.000018
  -22.036000    -0.000019
  -22.026000    -0.000021
  -22.016000    -0.000022
  -22.006000    -0.000023
  -21.996000    -0.000025
  -21.986000    -0.000026
  -21.976000    -0.000028
  -21.966000    -0.000029
  -21.956000    -0.000031
  -21.946000    -0.000033
  -21.936000    -0.000035
  -21.926000    -0.000037
  -21.916000    -0.000039
  -21.906000    -0.000041
  -21.896000    -0.000043
  -21.886000    -0.000045
  -21.876000    -0.000048
  -21.866000    -0.000050
  -21.856000    -0.000053
  -21.846000    -0.000055
  -21.836000    -0.000058
  -21.826000    -0.000061
  -21.816000    -0.000064
  -21.806000    -0.000067
  -21.796000    -0.000070
  -21.786000    -0.000074
  -21.776000    -0.000077
  -21.766000    -0.000080
  -21.756000    -0.000084
  -21.746000    -0.000088
  -21.736000    -0.000092
  -21.726000    -0.000095
  -21.716000    -0.000099
  -21.706000    -0.000103
  -21.696000    -0.000108
  -21.686000    -0.000112
  -21.676000    -0.000116
  -21.666000    -0.000121
  -21.656000    -0.000125
  -21.646000    -0.000130
  -21.636000    -0.000134
  -21.626000    -0.000139
  -21.616000    -0.000144
  -21.606000    -0.000148
  -21.596000    -0.000153
  -21.586000    -0.000158
  -21.576000    -0.000163
  -21.566000    -0.000166
  -21.556000    -0.000171
  -21.546000    -0.000176
  -21.536000    -0.000180
  -21.526000    -0.000185
  -21.516000    -0.000190
  -21.506000    -0.000194
  -21.496000    -0.000198
  -21.486000    -0.000203
  -21.476000    -0.000206
  -21.466000    -0.000210
  -21.456000    -0.000213
  -21.446000    -0.000216
  -21.436000    -0.000219
  -21.426000    -0.000221
  -21.416000    -0.000224
  -21.406000    -0.000226
  -21.396000    -0.000228
  -21.386000    -0.000229
  -21.376000    -0.000230
  -21.366000    -0.000230
  -21.356000    -0.000230
  -21.346000    -0.000230
  -21.336000    -0.000229
  -21.326000    -0.000226
  -21.316000    -0.000224
  -21.306000    -0.000221
  -21.296000    -0.000218
  -21.286000    -0.000213
  -21.276000    -0.000208
  -21.266000    -0.000202
  -21.256000    -0.000195
  -21.246000    -0.000187
  -21.236000    -0.000179
  -21.226000    -0.000169
  -21.216000    -0.000158
  -21.206000    -0.000147
  -21.196000    -0.000134
  -21.186000    -0.000120
  -21.176000    -0.000105
  -21.166000    -0.000089
  -21.156000    -0.000072
  -21.146000    -0.000054
  -21.136000    -0.000034
  -21.126000    -0.000013
  -21.116000     0.000010
  -21.106000     0.000033
  -21.096000     0.000058
  -21.086000     0.000085
  -21.076000     0.000113
  -21.066000     0.000142
  -21.056000     0.000173
  -21.046000     0.000206
  -21.036000     0.000239
  -21.026000     0.000274
  -21.016000     0.000312
  -21.006000     0.000350
  -20.996000     0.000390
  -20.986000     0.000431
  -20.976000     0.000474
  -20.966000     0.000519
  -20.956000     0.000565
  -20.946000     0.000612
  -20.936000     0.000661
  -20.926000     0.000712
  -20.916000     0.000763
  -20.906000     0.000817
  -20.896000     0.000871
  -20.886000     0.000928
  -20.876000     0.000987
  -20.866000     0.001045
  -20.856000     0.001105
  -20.846000     0.001166
  -20.836000     0.001228
  -20.826000     0.001295
  -20.816000     0.001358
  -20.806000     0.001421
  -20.796000     0.001484
  -20.786000     0.001557
  -20.776000     0.001621
  -20.766000     0.001695
  -20.756000     0.001759
  -20.746000     0.001832
  -20.736000     0.001906
  -20.726000     0.001970
  -20.716000     0.002044
  -20.706000     0.002117
  -20.696000     0.002191
  -20.686000     0.002256
  -20.676000     0.002329
  -20.666000     0.002403
  -20.656000     0.002466
  -20.646000     0.002540
  -20.636000     0.002614
  -20.626000     0.002677
  -20.616000     0.002750
  -20.606000     0.002812
  -20.596000     0.002885
  -20.586000     0.002947
  -20.576000     0.003010
  -20.566000     0.003071
  -20.556000     0.003133
  -20.546000     0.003194
  -20.536000     0.003255
  -20.526000     0.003306
  -20.516000     0.003366
  -20.506000     0.003416
  -20.496000     0.003465
  -20.486000     0.003514
  -20.476000     0.003562
  -20.466000     0.003610
  -20.456000     0.003647
  -20.446000     0.003684
  -20.436000     0.003720
  -20.426000     0.003756
  -20.416000     0.003791
  -20.406000     0.003816
  -20.396000     0.003840
  -20.386000     0.003863
  -20.376000     0.003886
  -20.366000     0.003908
  -20.356000     0.003920
  -20.346000     0.003931
  -20.336000     0.003941
  -20.326000     0.003941
  -20.316000     0.003950
  -20.306000     0.003949
  -20.296000     0.003947
  -20.286000     0.003935
  -20.276000     0.003921
  -20.266000     0.003917
  -20.256000     0.003893
  -20.246000     0.003878
  -20.236000     0.003863
  -20.226000     0.003837
  -20.216000     0.003810
  -20.206000     0.003773
  -20.196000     0.003746
  -20.186000     0.003707
  -20.176000     0.003669
  -20.166000     0.003630
  -20.156000     0.003590
  -20.146000     0.003552
  -20.136000     0.003502
  -20.126000     0.003452
  -20.116000     0.003401
  -20.106000     0.003351
  -20.096000     0.003299
  -20.086000     0.003249
  -20.076000     0.003197
  -20.066000     0.003137
  -20.056000     0.003075
  -20.046000     0.003024
  -20.036000     0.002963
  -20.026000     0.002902
  -20.016000     0.002841
  -20.006000     0.002790
  -19.996000     0.002729
  -19.986000     0.002669
  -19.976000     0.002609
  -19.966000     0.002550
  -19.956000     0.002490
  -19.946000     0.002432
  -19.936000     0.002383
  -19.926000     0.002326
  -19.916000     0.002269
  -19.906000     0.002222
  -19.896000     0.002176
  -19.886000     0.002120
  -19.876000     0.002075
  -19.866000     0.002032
  -19.856000     0.001989
  -19.846000     0.001946
  -19.836000     0.001915
  -19.826000     0.001885
  -19.816000     0.001845
  -19.806000     0.001816
  -19.796000     0.001800
  -19.786000     0.001773
  -19.776000     0.001757
  -19.766000     0.001744
  -19.756000     0.001730
  -19.746000     0.001719
  -19.736000     0.001717
  -19.726000     0.001718
  -19.716000     0.001720
  -19.706000     0.001722
  -19.696000     0.001736
  -19.686000     0.001751
  -19.676000     0.001767
  -19.666000     0.001795
  -19.656000     0.001813
  -19.646000     0.001844
  -19.636000     0.001885
  -19.626000     0.001918
  -19.616000     0.001961
  -19.606000     0.002006
  -19.596000     0.002061
  -19.586000     0.002118
  -19.576000     0.002166
  -19.566000     0.002236
  -19.556000     0.002296
  -19.546000     0.002367
  -19.536000     0.002440
  -19.526000     0.002513
  -19.516000     0.002587
  -19.506000     0.002673
  -19.496000     0.002758
  -19.486000     0.002844
  -19.476000     0.002934
  -19.466000     0.003023
  -19.456000     0.003123
  -19.446000     0.003223
