# Energy    Summed_PDOS
  -27.116000    -0.001479
  -27.106000    -0.001596
  -27.096000    -0.001722
  -27.086000    -0.001856
  -27.076000    -0.001999
  -27.066000    -0.002153
  -27.056000    -0.002318
  -27.046000    -0.002493
  -27.036000    -0.002682
  -27.026000    -0.002882
  -27.016000    -0.003096
  -27.006000    -0.003324
  -26.996000    -0.003566
  -26.986000    -0.003824
  -26.976000    -0.004103
  -26.966000    -0.004392
  -26.956000    -0.004698
  -26.946000    -0.005026
  -26.936000    -0.005383
  -26.926000    -0.005753
  -26.916000    -0.006145
  -26.906000    -0.006565
  -26.896000    -0.007015
  -26.886000    -0.007474
  -26.876000    -0.007966
  -26.866000    -0.008495
  -26.856000    -0.009035
  -26.846000    -0.009627
  -26.836000    -0.010232
  -26.826000    -0.010877
  -26.816000    -0.011564
  -26.806000    -0.012276
  -26.796000    -0.013020
  -26.786000    -0.013809
  -26.776000    -0.014641
  -26.766000    -0.015519
  -26.756000    -0.016420
  -26.746000    -0.017381
  -26.736000    -0.018382
  -26.726000    -0.019436
  -26.716000    -0.020519
  -26.706000    -0.021666
  -26.696000    -0.022859
  -26.686000    -0.024105
  -26.676000    -0.025390
  -26.666000    -0.026740
  -26.656000    -0.028148
  -26.646000    -0.029601
  -26.636000    -0.031114
  -26.626000    -0.032700
  -26.616000    -0.034306
  -26.606000    -0.035996
  -26.596000    -0.037737
  -26.586000    -0.039571
  -26.576000    -0.041406
  -26.566000    -0.043303
  -26.556000    -0.045336
  -26.546000    -0.047311
  -26.536000    -0.049387
  -26.526000    -0.051574
  -26.516000    -0.053820
  -26.506000    -0.055948
  -26.496000    -0.058317
  -26.486000    -0.060636
  -26.476000    -0.063145
  -26.466000    -0.065495
  -26.456000    -0.067996
  -26.446000    -0.070526
  -26.436000    -0.073059
  -26.426000    -0.075710
  -26.416000    -0.078361
  -26.406000    -0.080915
  -26.396000    -0.083598
  -26.386000    -0.086371
  -26.376000    -0.088954
  -26.366000    -0.091636
  -26.356000    -0.094400
  -26.346000    -0.097083
  -26.336000    -0.099645
  -26.326000    -0.102188
  -26.316000    -0.104739
  -26.306000    -0.107349
  -26.296000    -0.109729
  -26.286000    -0.112229
  -26.276000    -0.114458
  -26.266000    -0.116665
  -26.256000    -0.118831
  -26.246000    -0.120855
  -26.236000    -0.122747
  -26.226000    -0.124379
  -26.216000    -0.126038
  -26.206000    -0.127425
  -26.196000    -0.128591
  -26.186000    -0.129652
  -26.176000    -0.130323
  -26.166000    -0.130829
  -26.156000    -0.131122
  -26.146000    -0.131122
  -26.136000    -0.130828
  -26.126000    -0.130301
  -26.116000    -0.129360
  -26.106000    -0.128014
  -26.096000    -0.126404
  -26.086000    -0.124268
  -26.076000    -0.121959
  -26.066000    -0.119113
  -26.056000    -0.115703
  -26.046000    -0.111915
  -26.036000    -0.107542
  -26.026000    -0.102783
  -26.016000    -0.097438
  -26.006000    -0.091566
  -25.996000    -0.084984
  -25.986000    -0.077908
  -25.976000    -0.070193
  -25.966000    -0.061809
  -25.956000    -0.052819
  -25.946000    -0.043114
  -25.936000    -0.032659
  -25.926000    -0.021516
  -25.916000    -0.009633
  -25.906000     0.003002
  -25.896000     0.016414
  -25.886000     0.030607
  -25.876000     0.045660
  -25.866000     0.061436
  -25.856000     0.078090
  -25.846000     0.095686
  -25.836000     0.113970
  -25.826000     0.133167
  -25.816000     0.153294
  -25.806000     0.174312
  -25.796000     0.196190
  -25.786000     0.218800
  -25.776000     0.242581
  -25.766000     0.266962
  -25.756000     0.292586
  -25.746000     0.318708
  -25.736000     0.345968
  -25.726000     0.374252
  -25.716000     0.403072
  -25.706000     0.432716
  -25.696000     0.464097
  -25.686000     0.494382
  -25.676000     0.526884
  -25.666000     0.560689
  -25.656000     0.594910
  -25.646000     0.628731
  -25.636000     0.664667
  -25.626000     0.701514
  -25.616000     0.737864
  -25.606000     0.774525
  -25.596000     0.813377
  -25.586000     0.850560
  -25.576000     0.889746
  -25.566000     0.930231
  -25.556000     0.970827
  -25.546000     1.010625
  -25.536000     1.051423
  -25.526000     1.092522
  -25.516000     1.134642
  -25.506000     1.176952
  -25.496000     1.218072
  -25.486000     1.260485
  -25.476000     1.301895
  -25.466000     1.344316
  -25.456000     1.385538
  -25.446000     1.427848
  -25.436000     1.470068
  -25.426000     1.511378
  -25.416000     1.552488
  -25.406000     1.594296
  -25.396000     1.635694
  -25.386000     1.674681
  -25.376000     1.715268
  -25.366000     1.753641
  -25.356000     1.791025
  -25.346000     1.831186
  -25.336000     1.867047
  -25.326000     1.902685
  -25.316000     1.937321
  -25.306000     1.972547
  -25.296000     2.005546
  -25.286000     2.038448
  -25.276000     2.070035
  -25.266000     2.100199
  -25.256000     2.129362
  -25.246000     2.155591
  -25.236000     2.183829
  -25.226000     2.208631
  -25.216000     2.232223
  -25.206000     2.253980
  -25.196000     2.274156
  -25.186000     2.293089
  -25.176000     2.311699
  -25.166000     2.326997
  -25.156000     2.342281
  -25.146000     2.354133
  -25.136000     2.365784
  -25.126000     2.376290
  -25.116000     2.383382
  -25.106000     2.390550
  -25.096000     2.394016
  -25.086000     2.397458
  -25.076000     2.398669
  -25.066000     2.397568
  -25.056000     2.394216
  -25.046000     2.390581
  -25.036000     2.383704
  -25.026000     2.377511
  -25.016000     2.367197
  -25.006000     2.357467
  -24.996000     2.344605
  -24.986000     2.329441
  -24.976000     2.315032
  -24.966000     2.296415
  -24.956000     2.277583
  -24.946000     2.256537
  -24.936000     2.234972
  -24.926000     2.212481
  -24.916000     2.186668
  -24.906000     2.161452
  -24.896000     2.133222
  -24.886000     2.104571
  -24.876000     2.074306
  -24.866000     2.043718
  -24.856000     2.013030
  -24.846000     1.978117
  -24.836000     1.944703
  -24.826000     1.909267
  -24.816000     1.872518
  -24.806000     1.835560
  -24.796000     1.799508
  -24.786000     1.759427
  -24.776000     1.721961
  -24.766000     1.681376
  -24.756000     1.641668
  -24.746000     1.600871
  -24.736000     1.559982
  -24.726000     1.518863
  -24.716000     1.477555
  -24.706000     1.435432
  -24.696000     1.393122
  -24.686000     1.351801
  -24.676000     1.309500
  -24.666000     1.268170
  -24.656000     1.224859
  -24.646000     1.183538
  -24.636000     1.141227
  -24.626000     1.101119
  -24.616000     1.058898
  -24.606000     1.018110
  -24.596000     0.977401
  -24.586000     0.936605
  -24.576000     0.897220
  -24.566000     0.857855
  -24.556000     0.818771
  -24.546000     0.780899
  -24.536000     0.744137
  -24.526000     0.706687
  -24.516000     0.670740
  -24.506000     0.635502
  -24.496000     0.599981
  -24.486000     0.566763
  -24.476000     0.533656
  -24.466000     0.501151
  -24.456000     0.468967
  -24.446000     0.438578
  -24.436000     0.407762
  -24.426000     0.378731
  -24.416000     0.350836
  -24.406000     0.323480
  -24.396000     0.296935
  -24.386000     0.271365
  -24.376000     0.246602
  -24.366000     0.222779
  -24.356000     0.199908
  -24.346000     0.177998
  -24.336000     0.156797
  -24.326000     0.136588
  -24.316000     0.117230
  -24.306000     0.098682
  -24.296000     0.081046
  -24.286000     0.064239
  -24.276000     0.048293
  -24.266000     0.033115
  -24.256000     0.018777
  -24.246000     0.005238
  -24.236000    -0.007525
  -24.226000    -0.019531
  -24.216000    -0.030803
  -24.206000    -0.041364
  -24.196000    -0.051178
  -24.186000    -0.060351
  -24.176000    -0.068756
  -24.166000    -0.076642
  -24.156000    -0.083880
  -24.146000    -0.090390
  -24.136000    -0.096376
  -24.126000    -0.101872
  -24.116000    -0.106852
  -24.106000    -0.111146
  -24.096000    -0.115185
  -24.086000    -0.118516
  -24.076000    -0.121383
  -24.066000    -0.124024
  -24.056000    -0.126091
  -24.046000    -0.127810
  -24.036000    -0.129098
  -24.026000    -0.130159
  -24.016000    -0.130798
  -24.006000    -0.131111
  -23.996000    -0.131133
  -23.986000    -0.130950
  -23.976000    -0.130464
  -23.966000    -0.129713
  -23.956000    -0.128771
  -23.946000    -0.127518
  -23.936000    -0.126131
  -23.926000    -0.124672
  -23.916000    -0.123062
  -23.906000    -0.121180
  -23.896000    -0.119155
  -23.886000    -0.117109
  -23.876000    -0.114901
  -23.866000    -0.112552
  -23.856000    -0.110204
  -23.846000    -0.107805
  -23.836000    -0.105303
  -23.826000    -0.102752
  -23.816000    -0.099999
  -23.806000    -0.097438
  -23.796000    -0.094874
  -23.786000    -0.092202
  -23.776000    -0.089429
  -23.766000    -0.086856
  -23.756000    -0.084063
  -23.746000    -0.081391
  -23.736000    -0.078728
  -23.726000    -0.076177
  -23.716000    -0.073515
  -23.706000    -0.070981
  -23.696000    -0.068381
  -23.686000    -0.065921
  -23.676000    -0.063550
  -23.666000    -0.061031
  -23.656000    -0.058732
  -23.646000    -0.056353
  -23.636000    -0.054086
  -23.626000    -0.051988
  -23.616000    -0.049772
  -23.606000    -0.047706
  -23.596000    -0.045671
  -23.586000    -0.043636
  -23.576000    -0.041728
  -23.566000    -0.039893
  -23.556000    -0.038078
  -23.546000    -0.036286
  -23.536000    -0.034597
  -23.526000    -0.032969
  -23.516000    -0.031373
  -23.506000    -0.029850
  -23.496000    -0.028386
  -23.486000    -0.026976
  -23.476000    -0.025610
  -23.466000    -0.024319
  -23.456000    -0.023071
  -23.446000    -0.021866
  -23.436000    -0.020716
  -23.426000    -0.019619
  -23.416000    -0.018554
  -23.406000    -0.017551
  -23.396000    -0.016586
  -23.386000    -0.015663
  -23.376000    -0.014794
  -23.366000    -0.013950
  -23.356000    -0.013158
  -23.346000    -0.012401
  -23.336000    -0.011669
  -23.326000    -0.010979
  -23.316000    -0.010340
  -23.306000    -0.009725
  -23.296000    -0.009121
  -23.286000    -0.008579
  -23.276000    -0.008056
  -23.266000    -0.007554
  -23.256000    -0.007084
  -23.246000    -0.006644
  -23.236000    -0.006218
  -23.226000    -0.005816
  -23.216000    -0.005446
  -23.206000    -0.005084
  -23.196000    -0.004755
  -23.186000    -0.004442
  -23.176000    -0.004148
  -23.166000    -0.003876
  -23.156000    -0.003610
  -23.146000    -0.003364
  -23.136000    -0.003134
  -23.126000    -0.002917
  -23.116000    -0.002716
  -23.106000    -0.002527
  -23.096000    -0.002348
  -23.086000    -0.002183
  -23.076000    -0.002028
  -23.066000    -0.001882
  -23.056000    -0.001746
  -23.046000    -0.001618
  -23.036000    -0.001501
  -23.026000    -0.001390
  -23.016000    -0.001288
  -23.006000    -0.001192
  -22.996000    -0.001102
  -22.986000    -0.001020
  -22.976000    -0.000943
  -22.966000    -0.000872
  -22.956000    -0.000805
  -22.946000    -0.000743
  -22.936000    -0.000687
  -22.926000    -0.000634
  -22.916000    -0.000586
  -22.906000    -0.000541
  -22.896000    -0.000499
  -22.886000    -0.000460
  -22.876000    -0.000425
  -22.866000    -0.000392
  -22.856000    -0.000363
  -22.846000    -0.000336
  -22.836000    -0.000311
  -22.826000    -0.000288
  -22.816000    -0.000268
  -22.806000    -0.000249
  -22.796000    -0.000232
  -22.786000    -0.000217
  -22.776000    -0.000204
  -22.766000    -0.000192
  -22.756000    -0.000182
  -22.746000    -0.000173
  -22.736000    -0.000166
  -22.726000    -0.000159
  -22.716000    -0.000155
  -22.706000    -0.000151
  -22.696000    -0.000149
  -22.686000    -0.000148
  -22.676000    -0.000148
  -22.666000    -0.000150
  -22.656000    -0.000152
  -22.646000    -0.000156
  -22.636000    -0.000162
  -22.626000    -0.000168
  -22.616000    -0.000176
  -22.606000    -0.000185
  -22.596000    -0.000196
  -22.586000    -0.000209
  -22.576000    -0.000223
  -22.566000    -0.000238
  -22.556000    -0.000256
  -22.546000    -0.000275
  -22.536000    -0.000297
  -22.526000    -0.000320
  -22.516000    -0.000346
  -22.506000    -0.000374
  -22.496000    -0.000405
  -22.486000    -0.000438
  -22.476000    -0.000475
  -22.466000    -0.000515
  -22.456000    -0.000557
  -22.446000    -0.000605
  -22.436000    -0.000655
  -22.426000    -0.000709
  -22.416000    -0.000768
  -22.406000    -0.000832
  -22.396000    -0.000900
  -22.386000    -0.000973
  -22.376000    -0.001053
  -22.366000    -0.001138
  -22.356000    -0.001231
  -22.346000    -0.001330
  -22.336000    -0.001435
  -22.326000    -0.001549
  -22.316000    -0.001672
  -22.306000    -0.001802
  -22.296000    -0.001942
  -22.286000    -0.002092
  -22.276000    -0.002253
  -22.266000    -0.002425
  -22.256000    -0.002606
  -22.246000    -0.002803
  -22.236000    -0.003011
  -22.226000    -0.003235
  -22.216000    -0.003471
  -22.206000    -0.003726
  -22.196000    -0.003994
  -22.186000    -0.004283
  -22.176000    -0.004589
  -22.166000    -0.004908
  -22.156000    -0.005247
  -22.146000    -0.005616
  -22.136000    -0.006005
  -22.126000    -0.006403
  -22.116000    -0.006837
  -22.106000    -0.007296
  -22.096000    -0.007786
  -22.086000    -0.008302
  -22.076000    -0.008849
  -22.066000    -0.009414
  -22.056000    -0.010018
  -22.046000    -0.010654
  -22.036000    -0.011329
  -22.026000    -0.012035
  -22.016000    -0.012785
  -22.006000    -0.013563
  -21.996000    -0.014381
  -21.986000    -0.015247
  -21.976000    -0.016142
  -21.966000    -0.017093
  -21.956000    -0.018077
  -21.946000    -0.019116
  -21.936000    -0.020195
  -21.926000    -0.021336
  -21.916000    -0.022503
  -21.906000    -0.023743
  -21.896000    -0.025050
  -21.886000    -0.026391
  -21.876000    -0.027789
  -21.866000    -0.029231
  -21.856000    -0.030750
  -21.846000    -0.032293
  -21.836000    -0.033953
  -21.826000    -0.035627
  -21.816000    -0.037338
  -21.806000    -0.039191
  -21.796000    -0.040976
  -21.786000    -0.042934
  -21.776000    -0.044958
  -21.766000    -0.046894
  -21.756000    -0.049065
  -21.746000    -0.051169
  -21.736000    -0.053385
  -21.726000    -0.055743
  -21.716000    -0.058023
  -21.706000    -0.060433
  -21.696000    -0.062745
  -21.686000    -0.065291
  -21.676000    -0.067747
  -21.666000    -0.070355
  -21.656000    -0.072953
  -21.646000    -0.075553
  -21.636000    -0.078185
  -21.626000    -0.080909
  -21.616000    -0.083630
  -21.606000    -0.086352
  -21.596000    -0.089185
  -21.586000    -0.091867
  -21.576000    -0.094598
  -21.566000    -0.097430
  -21.556000    -0.100062
  -21.546000    -0.102673
  -21.536000    -0.105295
  -21.526000    -0.107993
  -21.516000    -0.110683
  -21.506000    -0.113050
  -21.496000    -0.115502
  -21.486000    -0.117816
  -21.476000    -0.120218
  -21.466000    -0.122259
  -21.456000    -0.124188
  -21.446000    -0.126176
  -21.436000    -0.127881
  -21.426000    -0.129375
  -21.416000    -0.130676
  -21.406000    -0.131946
  -21.396000    -0.132852
  -21.386000    -0.133685
  -21.376000    -0.134113
  -21.366000    -0.134410
  -21.356000    -0.134304
  -21.346000    -0.133882
  -21.336000    -0.133167
  -21.326000    -0.132068
  -21.316000    -0.130753
  -21.306000    -0.128904
  -21.296000    -0.126861
  -21.286000    -0.124241
  -21.276000    -0.121037
  -21.266000    -0.117457
  -21.256000    -0.113540
  -21.246000    -0.108990
  -21.236000    -0.103957
  -21.226000    -0.098345
  -21.216000    -0.092173
  -21.206000    -0.085316
  -21.196000    -0.077859
  -21.186000    -0.069925
  -21.176000    -0.061161
  -21.166000    -0.051718
  -21.156000    -0.041626
  -21.146000    -0.030833
  -21.136000    -0.019277
  -21.126000    -0.006965
  -21.116000     0.006115
  -21.106000     0.019995
  -21.096000     0.034672
  -21.086000     0.050122
  -21.076000     0.066569
  -21.066000     0.083766
  -21.056000     0.101825
  -21.046000     0.120767
  -21.036000     0.140538
  -21.026000     0.161295
  -21.016000     0.182837
  -21.006000     0.205334
  -20.996000     0.228700
  -20.986000     0.253078
  -20.976000     0.278329
  -20.966000     0.304345
  -20.956000     0.331052
  -20.946000     0.359544
  -20.936000     0.388397
  -20.926000     0.417922
  -20.916000     0.447981
  -20.906000     0.480265
  -20.896000     0.511096
  -20.886000     0.544148
  -20.876000     0.578746
  -20.866000     0.612621
  -20.856000     0.647623
  -20.846000     0.684237
  -20.836000     0.720266
  -20.826000     0.758411
  -20.816000     0.796652
  -20.806000     0.834099
  -20.796000     0.873759
  -20.786000     0.914515
  -20.776000     0.953424
  -20.766000     0.994334
  -20.756000     1.035423
  -20.746000     1.076721
  -20.736000     1.116693
  -20.726000     1.159169
  -20.716000     1.201410
  -20.706000     1.243835
  -20.696000     1.285055
  -20.686000     1.327447
  -20.676000     1.369530
  -20.666000     1.412907
  -20.656000     1.454956
  -20.646000     1.494899
  -20.636000     1.536712
  -20.626000     1.578505
  -20.616000     1.618970
  -20.606000     1.658405
  -20.596000     1.698592
  -20.586000     1.737570
  -20.576000     1.775421
  -20.566000     1.812927
  -20.556000     1.850018
  -20.546000     1.885643
  -20.536000     1.921461
  -20.526000     1.955050
  -20.516000     1.987675
  -20.506000     2.019374
  -20.496000     2.052130
  -20.486000     2.079640
  -20.476000     2.107834
  -20.466000     2.135962
  -20.456000     2.161054
  -20.446000     2.186854
  -20.436000     2.207294
  -20.426000     2.229811
  -20.416000     2.249184
  -20.406000     2.269341
  -20.396000     2.284052
  -20.386000     2.300634
  -20.376000     2.314288
  -20.366000     2.325609
  -20.356000     2.335614
  -20.346000     2.342592
  -20.336000     2.351145
  -20.326000     2.354875
  -20.316000     2.357200
  -20.306000     2.359382
  -20.296000     2.360350
  -20.286000     2.358115
  -20.276000     2.352879
  -20.266000     2.348357
  -20.256000     2.339714
  -20.246000     2.331060
  -20.236000     2.320054
  -20.226000     2.308160
  -20.216000     2.291956
  -20.206000     2.277854
  -20.196000     2.259437
  -20.186000     2.242104
  -20.176000     2.220612
  -20.166000     2.200153
  -20.156000     2.176637
  -20.146000     2.151026
  -20.136000     2.125680
  -20.126000     2.098962
  -20.116000     2.070540
  -20.106000     2.042134
  -20.096000     2.010847
  -20.086000     1.980932
  -20.076000     1.946892
  -20.066000     1.915676
  -20.056000     1.881167
  -20.046000     1.847064
  -20.036000     1.812310
  -20.026000     1.776583
  -20.016000     1.740004
  -20.006000     1.704694
  -19.996000     1.668345
  -19.986000     1.632430
  -19.976000     1.593787
  -19.966000     1.558473
  -19.956000     1.520643
  -19.946000     1.484965
  -19.936000     1.448980
  -19.926000     1.412402
  -19.916000     1.376507
  -19.906000     1.341952
  -19.896000     1.307110
  -19.886000     1.273120
  -19.876000     1.239489
  -19.866000     1.207942
  -19.856000     1.175741
  -19.846000     1.144745
  -19.836000     1.115233
  -19.826000     1.086709
  -19.816000     1.060308
  -19.806000     1.032649
  -19.796000     1.009034
  -19.786000     0.984017
  -19.776000     0.962200
  -19.766000     0.941580
  -19.756000     0.921980
  -19.746000     0.904600
  -19.736000     0.889140
  -19.726000     0.872710
  -19.716000     0.861440
  -19.706000     0.849860
  -19.696000     0.840530
  -19.686000     0.831470
  -19.676000     0.826430
  -19.666000     0.820880
  -19.656000     0.818730
  -19.646000     0.817920
  -19.636000     0.818410
  -19.626000     0.820470
  -19.616000     0.824990
  -19.606000     0.830960
  -19.596000     0.838770
  -19.586000     0.848020
  -19.576000     0.859090
  -19.566000     0.872220
  -19.556000     0.886170
  -19.546000     0.901990
  -19.536000     0.919930
  -19.526000     0.939280
  -19.516000     0.960080
  -19.506000     0.982140
  -19.496000     1.004970
  -19.486000     1.029660
  -19.476000     1.054810
  -19.466000     1.082010
  -19.456000     1.110840
  -19.446000     1.140553
