# Energy    Summed_PDOS
  -27.116000    -0.000497
  -27.106000    -0.000536
  -27.096000    -0.000579
  -27.086000    -0.000624
  -27.076000    -0.000672
  -27.066000    -0.000724
  -27.056000    -0.000779
  -27.046000    -0.000838
  -27.036000    -0.000901
  -27.026000    -0.000969
  -27.016000    -0.001041
  -27.006000    -0.001118
  -26.996000    -0.001198
  -26.986000    -0.001283
  -26.976000    -0.001380
  -26.966000    -0.001478
  -26.956000    -0.001577
  -26.946000    -0.001687
  -26.936000    -0.001808
  -26.926000    -0.001931
  -26.916000    -0.002065
  -26.906000    -0.002210
  -26.896000    -0.002357
  -26.886000    -0.002515
  -26.876000    -0.002676
  -26.866000    -0.002857
  -26.856000    -0.003041
  -26.846000    -0.003236
  -26.836000    -0.003444
  -26.826000    -0.003653
  -26.816000    -0.003884
  -26.806000    -0.004128
  -26.796000    -0.004374
  -26.786000    -0.004642
  -26.776000    -0.004923
  -26.766000    -0.005216
  -26.756000    -0.005520
  -26.746000    -0.005840
  -26.736000    -0.006180
  -26.726000    -0.006530
  -26.716000    -0.006900
  -26.706000    -0.007280
  -26.696000    -0.007680
  -26.686000    -0.008100
  -26.676000    -0.008540
  -26.666000    -0.008990
  -26.656000    -0.009470
  -26.646000    -0.009950
  -26.636000    -0.010470
  -26.626000    -0.010990
  -26.616000    -0.011530
  -26.606000    -0.012100
  -26.596000    -0.012700
  -26.586000    -0.013310
  -26.576000    -0.013920
  -26.566000    -0.014540
  -26.556000    -0.015260
  -26.546000    -0.015880
  -26.536000    -0.016610
  -26.526000    -0.017340
  -26.516000    -0.018080
  -26.506000    -0.018810
  -26.496000    -0.019650
  -26.486000    -0.020400
  -26.476000    -0.021240
  -26.466000    -0.021990
  -26.456000    -0.022850
  -26.446000    -0.023700
  -26.436000    -0.024560
  -26.426000    -0.025410
  -26.416000    -0.026370
  -26.406000    -0.027240
  -26.396000    -0.028100
  -26.386000    -0.029060
  -26.376000    -0.029920
  -26.366000    -0.030790
  -26.356000    -0.031750
  -26.346000    -0.032610
  -26.336000    -0.033470
  -26.326000    -0.034330
  -26.316000    -0.035190
  -26.306000    -0.036040
  -26.296000    -0.036890
  -26.286000    -0.037740
  -26.276000    -0.038480
  -26.266000    -0.039210
  -26.256000    -0.039940
  -26.246000    -0.040660
  -26.236000    -0.041280
  -26.226000    -0.041780
  -26.216000    -0.042380
  -26.206000    -0.042860
  -26.196000    -0.043240
  -26.186000    -0.043600
  -26.176000    -0.043840
  -26.166000    -0.043980
  -26.156000    -0.044090
  -26.146000    -0.044090
  -26.136000    -0.043980
  -26.126000    -0.043840
  -26.116000    -0.043480
  -26.106000    -0.043010
  -26.096000    -0.042510
  -26.086000    -0.041780
  -26.076000    -0.041030
  -26.066000    -0.040060
  -26.056000    -0.038850
  -26.046000    -0.037620
  -26.036000    -0.036160
  -26.026000    -0.034560
  -26.016000    -0.032740
  -26.006000    -0.030780
  -25.996000    -0.028580
  -25.986000    -0.026150
  -25.976000    -0.023580
  -25.966000    -0.020770
  -25.956000    -0.017720
  -25.946000    -0.014530
  -25.936000    -0.010980
  -25.926000    -0.007230
  -25.916000    -0.003237
  -25.906000     0.001009
  -25.896000     0.005520
  -25.886000     0.010290
  -25.876000     0.015380
  -25.866000     0.020650
  -25.856000     0.026260
  -25.846000     0.032130
  -25.836000     0.038350
  -25.826000     0.044820
  -25.816000     0.051540
  -25.806000     0.058600
  -25.796000     0.066000
  -25.786000     0.073500
  -25.776000     0.081500
  -25.766000     0.089800
  -25.756000     0.098300
  -25.746000     0.107100
  -25.736000     0.116300
  -25.726000     0.125800
  -25.716000     0.135600
  -25.706000     0.145400
  -25.696000     0.156300
  -25.686000     0.166200
  -25.676000     0.177100
  -25.666000     0.188200
  -25.656000     0.200200
  -25.646000     0.211300
  -25.636000     0.223500
  -25.626000     0.235700
  -25.616000     0.247900
  -25.606000     0.260200
  -25.596000     0.273500
  -25.586000     0.285900
  -25.576000     0.299300
  -25.566000     0.312700
  -25.556000     0.326100
  -25.546000     0.339600
  -25.536000     0.353100
  -25.526000     0.367600
  -25.516000     0.381100
  -25.506000     0.395700
  -25.496000     0.409200
  -25.486000     0.423800
  -25.476000     0.437400
  -25.466000     0.451900
  -25.456000     0.465500
  -25.446000     0.480100
  -25.436000     0.494600
  -25.426000     0.508100
  -25.416000     0.521700
  -25.406000     0.536200
  -25.396000     0.549600
  -25.386000     0.563000
  -25.376000     0.577000
  -25.366000     0.590000
  -25.356000     0.602000
  -25.346000     0.616000
  -25.336000     0.628000
  -25.326000     0.640000
  -25.316000     0.651000
  -25.306000     0.663000
  -25.296000     0.674000
  -25.286000     0.685000
  -25.276000     0.696000
  -25.266000     0.706000
  -25.256000     0.716000
  -25.246000     0.724000
  -25.236000     0.734000
  -25.226000     0.743000
  -25.216000     0.750000
  -25.206000     0.757000
  -25.196000     0.765000
  -25.186000     0.771000
  -25.176000     0.777000
  -25.166000     0.782000
  -25.156000     0.787000
  -25.146000     0.792000
  -25.136000     0.795000
  -25.126000     0.799000
  -25.116000     0.801000
  -25.106000     0.804000
  -25.096000     0.805000
  -25.086000     0.806000
  -25.076000     0.806000
  -25.066000     0.806000
  -25.056000     0.805000
  -25.046000     0.804000
  -25.036000     0.801000
  -25.026000     0.799000
  -25.016000     0.796000
  -25.006000     0.793000
  -24.996000     0.788000
  -24.986000     0.783000
  -24.976000     0.778000
  -24.966000     0.772000
  -24.956000     0.766000
  -24.946000     0.759000
  -24.936000     0.751000
  -24.926000     0.744000
  -24.916000     0.735000
  -24.906000     0.727000
  -24.896000     0.717000
  -24.886000     0.707000
  -24.876000     0.697000
  -24.866000     0.687000
  -24.856000     0.677000
  -24.846000     0.665000
  -24.836000     0.654000
  -24.826000     0.641000
  -24.816000     0.629000
  -24.806000     0.617000
  -24.796000     0.605000
  -24.786000     0.591000
  -24.776000     0.579000
  -24.766000     0.565000
  -24.756000     0.552000
  -24.746000     0.538600
  -24.736000     0.524100
  -24.726000     0.510600
  -24.716000     0.497000
  -24.706000     0.482500
  -24.696000     0.467900
  -24.686000     0.454400
  -24.676000     0.439800
  -24.666000     0.426200
  -24.656000     0.411700
  -24.646000     0.398100
  -24.636000     0.383600
  -24.626000     0.370000
  -24.616000     0.355500
  -24.606000     0.342000
  -24.596000     0.328600
  -24.586000     0.315100
  -24.576000     0.301700
  -24.566000     0.288300
  -24.556000     0.274900
  -24.546000     0.262600
  -24.536000     0.250300
  -24.526000     0.237100
  -24.516000     0.225900
  -24.506000     0.213700
  -24.496000     0.201600
  -24.486000     0.190500
  -24.476000     0.179500
  -24.466000     0.168500
  -24.456000     0.157600
  -24.446000     0.147700
  -24.436000     0.136900
  -24.426000     0.127100
  -24.416000     0.117900
  -24.406000     0.108700
  -24.396000     0.099800
  -24.386000     0.091200
  -24.376000     0.082900
  -24.366000     0.074900
  -24.356000     0.067200
  -24.346000     0.059800
  -24.336000     0.052760
  -24.326000     0.045920
  -24.316000     0.039440
  -24.306000     0.033210
  -24.296000     0.027240
  -24.286000     0.021610
  -24.276000     0.016240
  -24.266000     0.011130
  -24.256000     0.006310
  -24.246000     0.001759
  -24.236000    -0.002529
  -24.226000    -0.006570
  -24.216000    -0.010360
  -24.206000    -0.013920
  -24.196000    -0.017220
  -24.186000    -0.020280
  -24.176000    -0.023090
  -24.166000    -0.025770
  -24.156000    -0.028210
  -24.146000    -0.030410
  -24.136000    -0.032380
  -24.126000    -0.034210
  -24.116000    -0.035910
  -24.106000    -0.037380
  -24.096000    -0.038720
  -24.086000    -0.039820
  -24.076000    -0.040800
  -24.066000    -0.041660
  -24.056000    -0.042390
  -24.046000    -0.042990
  -24.036000    -0.043370
  -24.026000    -0.043730
  -24.016000    -0.043970
  -24.006000    -0.044090
  -23.996000    -0.044100
  -23.986000    -0.043980
  -23.976000    -0.043850
  -23.966000    -0.043610
  -23.956000    -0.043250
  -23.946000    -0.042880
  -23.936000    -0.042390
  -23.926000    -0.041900
  -23.916000    -0.041400
  -23.906000    -0.040680
  -23.896000    -0.040060
  -23.886000    -0.039340
  -23.876000    -0.038600
  -23.866000    -0.037860
  -23.856000    -0.037020
  -23.846000    -0.036270
  -23.836000    -0.035420
  -23.826000    -0.034560
  -23.816000    -0.033600
  -23.806000    -0.032740
  -23.796000    -0.031880
  -23.786000    -0.031020
  -23.776000    -0.030050
  -23.766000    -0.029190
  -23.756000    -0.028230
  -23.746000    -0.027360
  -23.736000    -0.026500
  -23.726000    -0.025640
  -23.716000    -0.024680
  -23.706000    -0.023830
  -23.696000    -0.022970
  -23.686000    -0.022120
  -23.676000    -0.021370
  -23.666000    -0.020520
  -23.656000    -0.019780
  -23.646000    -0.018940
  -23.636000    -0.018200
  -23.626000    -0.017470
  -23.616000    -0.016730
  -23.606000    -0.016010
  -23.596000    -0.015380
  -23.586000    -0.014660
  -23.576000    -0.014040
  -23.566000    -0.013430
  -23.556000    -0.012820
  -23.546000    -0.012200
  -23.536000    -0.011630
  -23.526000    -0.011080
  -23.516000    -0.010550
  -23.506000    -0.010040
  -23.496000    -0.009540
  -23.486000    -0.009070
  -23.476000    -0.008610
  -23.466000    -0.008170
  -23.456000    -0.007760
  -23.446000    -0.007350
  -23.436000    -0.006960
  -23.426000    -0.006600
  -23.416000    -0.006240
  -23.406000    -0.005900
  -23.396000    -0.005570
  -23.386000    -0.005265
  -23.376000    -0.004971
  -23.366000    -0.004690
  -23.356000    -0.004422
  -23.346000    -0.004166
  -23.336000    -0.003922
  -23.326000    -0.003690
  -23.316000    -0.003480
  -23.306000    -0.003273
  -23.296000    -0.003067
  -23.286000    -0.002883
  -23.276000    -0.002711
  -23.266000    -0.002540
  -23.256000    -0.002382
  -23.246000    -0.002235
  -23.236000    -0.002089
  -23.226000    -0.001955
  -23.216000    -0.001832
  -23.206000    -0.001710
  -23.196000    -0.001600
  -23.186000    -0.001491
  -23.176000    -0.001393
  -23.166000    -0.001306
  -23.156000    -0.001213
  -23.146000    -0.001131
  -23.136000    -0.001053
  -23.126000    -0.000981
  -23.116000    -0.000913
  -23.106000    -0.000849
  -23.096000    -0.000789
  -23.086000    -0.000733
  -23.076000    -0.000682
  -23.066000    -0.000632
  -23.056000    -0.000587
  -23.046000    -0.000544
  -23.036000    -0.000505
  -23.026000    -0.000467
  -23.016000    -0.000433
  -23.006000    -0.000400
  -22.996000    -0.000371
  -22.986000    -0.000342
  -22.976000    -0.000317
  -22.966000    -0.000293
  -22.956000    -0.000269
  -22.946000    -0.000249
  -22.936000    -0.000230
  -22.926000    -0.000212
  -22.916000    -0.000195
  -22.906000    -0.000181
  -22.896000    -0.000166
  -22.886000    -0.000153
  -22.876000    -0.000141
  -22.866000    -0.000130
  -22.856000    -0.000120
  -22.846000    -0.000110
  -22.836000    -0.000102
  -22.826000    -0.000094
  -22.816000    -0.000087
  -22.806000    -0.000080
  -22.796000    -0.000074
  -22.786000    -0.000069
  -22.776000    -0.000064
  -22.766000    -0.000059
  -22.756000    -0.000055
  -22.746000    -0.000052
  -22.736000    -0.000049
  -22.726000    -0.000046
  -22.716000    -0.000044
  -22.706000    -0.000041
  -22.696000    -0.000040
  -22.686000    -0.000038
  -22.676000    -0.000037
  -22.666000    -0.000037
  -22.656000    -0.000036
  -22.646000    -0.000036
  -22.636000    -0.000036
  -22.626000    -0.000037
  -22.616000    -0.000037
  -22.606000    -0.000039
  -22.596000    -0.000040
  -22.586000    -0.000042
  -22.576000    -0.000044
  -22.566000    -0.000046
  -22.556000    -0.000049
  -22.546000    -0.000052
  -22.536000    -0.000055
  -22.526000    -0.000059
  -22.516000    -0.000064
  -22.506000    -0.000068
  -22.496000    -0.000074
  -22.486000    -0.000080
  -22.476000    -0.000086
  -22.466000    -0.000093
  -22.456000    -0.000100
  -22.446000    -0.000108
  -22.436000    -0.000117
  -22.426000    -0.000126
  -22.416000    -0.000137
  -22.406000    -0.000148
  -22.396000    -0.000161
  -22.386000    -0.000173
  -22.376000    -0.000187
  -22.366000    -0.000202
  -22.356000    -0.000219
  -22.346000    -0.000237
  -22.336000    -0.000255
  -22.326000    -0.000275
  -22.316000    -0.000297
  -22.306000    -0.000320
  -22.296000    -0.000344
  -22.286000    -0.000371
  -22.276000    -0.000399
  -22.266000    -0.000431
  -22.256000    -0.000462
  -22.246000    -0.000497
  -22.236000    -0.000534
  -22.226000    -0.000573
  -22.216000    -0.000616
  -22.206000    -0.000661
  -22.196000    -0.000708
  -22.186000    -0.000760
  -22.176000    -0.000814
  -22.166000    -0.000871
  -22.156000    -0.000932
  -22.146000    -0.000996
  -22.136000    -0.001064
  -22.126000    -0.001135
  -22.116000    -0.001214
  -22.106000    -0.001293
  -22.096000    -0.001382
  -22.086000    -0.001472
  -22.076000    -0.001573
  -22.066000    -0.001674
  -22.056000    -0.001776
  -22.046000    -0.001888
  -22.036000    -0.002011
  -22.026000    -0.002135
  -22.016000    -0.002270
  -22.006000    -0.002405
  -21.996000    -0.002551
  -21.986000    -0.002708
  -21.976000    -0.002865
  -21.966000    -0.003034
  -21.956000    -0.003203
  -21.946000    -0.003394
  -21.936000    -0.003585
  -21.926000    -0.003787
  -21.916000    -0.003990
  -21.906000    -0.004214
  -21.896000    -0.004439
  -21.886000    -0.004676
  -21.876000    -0.004923
  -21.866000    -0.005181
  -21.856000    -0.005451
  -21.846000    -0.005731
  -21.836000    -0.006023
  -21.826000    -0.006316
  -21.816000    -0.006630
  -21.806000    -0.006945
  -21.796000    -0.007272
  -21.786000    -0.007619
  -21.776000    -0.007968
  -21.766000    -0.008328
  -21.756000    -0.008699
  -21.746000    -0.009080
  -21.736000    -0.009470
  -21.726000    -0.009880
  -21.716000    -0.010280
  -21.706000    -0.010710
  -21.696000    -0.011140
  -21.686000    -0.011580
  -21.676000    -0.012020
  -21.666000    -0.012480
  -21.656000    -0.012930
  -21.646000    -0.013380
  -21.636000    -0.013830
  -21.626000    -0.014380
  -21.616000    -0.014840
  -21.606000    -0.015290
  -21.596000    -0.015840
  -21.586000    -0.016300
  -21.576000    -0.016750
  -21.566000    -0.017300
  -21.556000    -0.017760
  -21.546000    -0.018210
  -21.536000    -0.018660
  -21.526000    -0.019110
  -21.516000    -0.019660
  -21.506000    -0.020010
  -21.496000    -0.020460
  -21.486000    -0.020900
  -21.476000    -0.021350
  -21.466000    -0.021690
  -21.456000    -0.022030
  -21.446000    -0.022370
  -21.436000    -0.022700
  -21.426000    -0.022930
  -21.416000    -0.023160
  -21.406000    -0.023380
  -21.396000    -0.023600
  -21.386000    -0.023710
  -21.376000    -0.023820
  -21.366000    -0.023830
  -21.356000    -0.023830
  -21.346000    -0.023720
  -21.336000    -0.023610
  -21.326000    -0.023390
  -21.316000    -0.023160
  -21.306000    -0.022830
  -21.296000    -0.022490
  -21.286000    -0.022030
  -21.276000    -0.021480
  -21.266000    -0.020810
  -21.256000    -0.020130
  -21.246000    -0.019340
  -21.236000    -0.018440
  -21.226000    -0.017440
  -21.216000    -0.016320
  -21.206000    -0.015080
  -21.196000    -0.013740
  -21.186000    -0.012390
  -21.176000    -0.010790
  -21.166000    -0.009120
  -21.156000    -0.007320
  -21.146000    -0.005391
  -21.136000    -0.003337
  -21.126000    -0.001146
  -21.116000     0.001184
  -21.106000     0.003652
  -21.096000     0.006266
  -21.086000     0.009026
  -21.076000     0.011950
  -21.066000     0.014980
  -21.056000     0.018230
  -21.046000     0.021600
  -21.036000     0.025080
  -21.026000     0.028780
  -21.016000     0.032600
  -21.006000     0.036630
  -20.996000     0.040780
  -20.986000     0.045150
  -20.976000     0.049630
  -20.966000     0.054330
  -20.956000     0.059050
  -20.946000     0.064090
  -20.936000     0.069240
  -20.926000     0.074510
  -20.916000     0.079900
  -20.906000     0.085500
  -20.896000     0.091210
  -20.886000     0.097100
  -20.876000     0.103200
  -20.866000     0.109400
  -20.856000     0.115400
  -20.846000     0.122100
  -20.836000     0.128800
  -20.826000     0.135500
  -20.816000     0.142200
  -20.806000     0.149000
  -20.796000     0.155700
  -20.786000     0.163500
  -20.776000     0.170200
  -20.766000     0.178000
  -20.756000     0.184800
  -20.746000     0.192600
  -20.736000     0.199300
  -20.726000     0.207100
  -20.716000     0.214900
  -20.706000     0.222700
  -20.696000     0.229500
  -20.686000     0.237300
  -20.676000     0.245000
  -20.666000     0.252800
  -20.656000     0.260600
  -20.646000     0.267400
  -20.636000     0.275100
  -20.626000     0.282900
  -20.616000     0.289600
  -20.606000     0.297300
  -20.596000     0.304100
  -20.586000     0.311800
  -20.576000     0.318500
  -20.566000     0.325100
  -20.556000     0.331800
  -20.546000     0.338400
  -20.536000     0.345000
  -20.526000     0.350600
  -20.516000     0.357200
  -20.506000     0.362700
  -20.496000     0.368300
  -20.486000     0.373800
  -20.476000     0.379200
  -20.466000     0.384700
  -20.456000     0.389100
  -20.446000     0.393500
  -20.436000     0.397800
  -20.426000     0.402100
  -20.416000     0.406400
  -20.406000     0.409700
  -20.396000     0.412900
  -20.386000     0.416100
  -20.376000     0.418200
  -20.366000     0.420400
  -20.356000     0.422500
  -20.346000     0.424500
  -20.336000     0.426500
  -20.326000     0.427500
  -20.316000     0.428500
  -20.306000     0.428400
  -20.296000     0.429200
  -20.286000     0.429100
  -20.276000     0.428900
  -20.266000     0.427700
  -20.256000     0.426400
  -20.246000     0.425100
  -20.236000     0.423800
  -20.226000     0.421500
  -20.216000     0.419100
  -20.206000     0.416700
  -20.196000     0.414300
  -20.186000     0.410800
  -20.176000     0.407300
  -20.166000     0.403800
  -20.156000     0.400300
  -20.146000     0.395700
  -20.136000     0.391200
  -20.126000     0.386600
  -20.116000     0.382000
  -20.106000     0.377400
  -20.096000     0.371800
  -20.086000     0.366200
  -20.076000     0.360500
  -20.066000     0.354900
  -20.056000     0.348300
  -20.046000     0.342600
  -20.036000     0.336000
  -20.026000     0.329400
  -20.016000     0.322800
  -20.006000     0.316200
  -19.996000     0.309600
  -19.986000     0.303000
  -19.976000     0.295400
  -19.966000     0.288900
  -19.956000     0.281400
  -19.946000     0.274900
  -19.936000     0.267400
  -19.926000     0.260000
  -19.916000     0.252600
  -19.906000     0.246200
  -19.896000     0.238900
  -19.886000     0.231600
  -19.876000     0.224400
  -19.866000     0.218200
  -19.856000     0.211000
  -19.846000     0.203900
  -19.836000     0.197900
  -19.826000     0.190900
  -19.816000     0.185000
  -19.806000     0.178100
  -19.796000     0.172300
  -19.786000     0.165500
  -19.776000     0.159800
  -19.766000     0.154200
  -19.756000     0.148600
  -19.746000     0.143100
  -19.736000     0.137700
  -19.726000     0.132300
  -19.716000     0.128000
  -19.706000     0.123200
  -19.696000     0.118600
  -19.686000     0.114400
  -19.676000     0.110200
  -19.666000     0.106400
  -19.656000     0.102700
  -19.646000     0.099200
  -19.636000     0.096000
  -19.626000     0.092900
  -19.616000     0.090100
  -19.606000     0.087500
  -19.596000     0.085100
  -19.586000     0.082900
  -19.576000     0.081000
  -19.566000     0.079200
  -19.556000     0.077600
  -19.546000     0.076300
  -19.536000     0.075100
  -19.526000     0.074200
  -19.516000     0.073400
  -19.506000     0.072900
  -19.496000     0.072500
  -19.486000     0.072300
  -19.476000     0.072300
  -19.466000     0.072510
  -19.456000     0.072840
  -19.446000     0.073290
